# Wavelength(nm)  Flambda(ergs/cm^s/s/nm)
30.00 8.992038
30.50 8.773359
31.00 8.562114
31.50 8.357944
32.00 8.16225
32.50 7.976254
33.00 7.794389
33.50 7.621355
34.00 7.453486
34.50 7.292083
35.00 7.136791
35.50 6.985863
36.00 6.840505
36.50 6.700438
37.00 6.565397
37.50 6.435119
38.00 6.308134
38.50 6.185532
39.00 6.067108
39.50 5.952653
40.00 5.840863
40.50 5.732745
41.00 5.628132
41.50 5.526865
42.00 5.428797
42.50 5.333787
43.00 5.240726
43.50 5.15051
44.00 5.063017
44.50 4.978134
45.00 4.894862
45.50 4.814899
46.00 4.736385
46.50 4.660115
47.00 4.586003
47.50 4.513961
48.00 4.443126
48.50 4.375006
49.00 4.307975
49.50 4.242746
50.00 4.179251
50.50 4.117427
51.00 4.057212
51.50 3.998548
52.00 3.940711
52.50 3.884342
53.00 3.830031
53.50 3.776432
54.00 3.723534
54.50 3.672539
55.00 3.622775
55.50 3.573614
56.00 3.526198
56.50 3.47933
57.00 3.433555
57.50 3.388839
58.00 3.345149
58.50 3.30245
59.00 3.260713
59.50 3.219396
60.00 3.179499
60.50 3.139983
61.00 3.101814
61.50 3.06399
62.00 3.026978
62.50 2.990753
63.00 2.955292
63.50 2.920125
64.00 2.886132
64.50 2.852406
65.00 2.819798
65.50 2.787429
66.00 2.755713
66.50 2.725041
67.00 2.694572
67.50 2.664703
68.00 2.635028
68.50 2.606317
69.00 2.578158
69.50 2.550537
70.00 2.523071
70.50 2.496125
71.00 2.470043
71.50 2.44409
72.00 2.418618
72.50 2.393614
73.00 2.369065
73.50 2.344961
74.00 2.321289
74.50 2.298039
75.00 2.274881
75.50 2.252449
76.00 2.230408
76.50 2.208441
77.00 2.186854
77.50 2.165939
78.00 2.145083
78.50 2.12458
79.00 2.104423
79.50 2.084604
80.00 2.065114
80.50 2.045946
81.00 2.027092
81.50 2.008274
82.00 1.990031
82.50 1.972082
83.00 1.954157
83.50 1.936519
84.00 1.919416
84.50 1.90233
85.00 1.88551
85.50 1.869201
86.00 1.852898
86.50 1.836846
87.00 1.821039
87.50 1.805472
88.00 1.789908
88.50 1.77481
89.00 1.759937
89.25 1.750092
89.75 1.905414
90.25 2.269031
90.75 2.052998
91.25 2.655249
91.75 3.198834
92.25 3.666884
92.75 3.690396
93.25 3.501486
93.75 4.00225
94.25 4.540982
94.75 4.107191
95.25 4.153703
95.75 3.445049
96.25 3.910037
96.75 4.135807
97.25 4.946417
97.75 4.712723
98.25 4.857457
98.75 5.326617
99.25 5.025736
99.75 4.587309
100.25 4.216618
100.75 4.574932
101.25 4.762249
101.75 5.442507
102.25 5.965983
102.75 7.250026
103.25 7.207065
103.75 7.069021
104.25 5.946852
104.75 5.676385
105.25 5.422182
105.75 5.456566
106.25 5.416521
106.75 5.45776
107.25 5.171631
107.75 5.220127
108.25 4.811607
108.75 4.677425
109.25 4.539445
109.75 4.372312
110.25 4.445592
110.75 4.827849
111.25 4.923085
111.75 5.078572
112.25 4.98616
112.75 5.025799
113.25 4.701485
113.75 4.572367
114.25 4.482657
114.75 4.723292
115.25 4.556031
115.75 4.705345
116.25 4.803851
116.75 5.059391
117.25 5.586101
117.75 5.91886
118.25 5.582372
118.75 6.378902
119.25 7.358619
119.75 8.5068
120.25 10.31342
120.75 13.12099
121.25 18.10771
121.75 19.59084
122.25 15.68723
122.75 13.76296
123.25 12.85548
123.75 12.88145
124.25 12.08823
124.75 9.864595
125.25 8.7356
125.75 8.214301
126.25 7.89459
126.75 7.485291
127.25 6.809097
127.75 6.453993
128.25 6.258925
128.75 6.192985
129.25 6.338549
129.75 6.517067
130.25 6.763945
130.75 6.738702
131.25 6.412965
131.75 6.048294
132.25 5.975815
132.75 5.941126
133.25 6.16599
133.75 6.221876
134.25 6.024406
134.75 5.916166
135.25 5.797519
135.75 5.795046
136.25 5.847868
136.75 5.931614
137.25 5.946918
137.75 6.03033
138.25 6.249298
138.75 6.620591
139.25 7.024556
139.75 7.100989
140.25 7.115594
140.75 6.545832
141.25 6.129592
141.75 5.831326
142.25 5.669994
142.75 5.557717
143.25 5.442469
143.75 5.372358
144.25 5.319567
144.75 5.261346
145.25 5.225185
145.75 5.222531
146.25 5.288983
146.75 5.220319
147.25 5.286478
147.75 5.295404
148.25 5.35254
148.75 5.447942
149.25 5.447151
149.75 5.547657
150.25 5.530782
150.75 5.671257
151.25 5.808968
151.75 6.066223
152.25 6.397065
152.75 6.950091
153.25 7.522677
153.75 8.360244
154.25 9.299829
154.75 9.74478
155.25 8.873403
155.75 7.559141
156.25 6.771585
156.75 6.278178
157.25 5.963879
157.75 5.715807
158.25 5.557228
158.75 5.469282
159.25 5.390156
159.75 5.343738
160.25 5.31958
160.75 5.295619
161.25 5.301006
161.75 5.276562
162.25 5.279056
162.75 5.275969
163.25 5.339188
163.75 5.361152
164.25 5.268352
164.75 5.092795
165.25 5.036908
165.75 5.057806
166.25 5.042448
166.75 4.97201
167.25 4.834577
167.75 4.690352
168.25 4.592384
168.75 4.506267
169.25 4.494173
169.75 4.472748
170.25 4.456478
170.75 4.503462
171.25 4.517821
171.75 4.515416
172.25 4.505056
172.75 4.499578
173.25 4.466428
173.75 4.455107
174.25 4.511606
174.75 4.52956
175.25 4.484947
175.75 4.389931
176.25 4.329618
176.75 4.282048
177.25 4.281477
177.75 4.248855
178.25 4.251749
178.75 4.271491
179.25 4.216238
179.75 4.162092
180.25 4.128479
180.75 4.141026
181.25 4.136889
181.75 4.138746
182.25 4.122045
182.75 4.078444
183.25 4.085778
183.75 4.134133
184.25 4.179776
184.75 4.258177
185.25 4.353028
185.75 4.409657
186.25 4.400061
186.75 4.397232
187.25 4.400546
187.75 4.447284
188.25 4.635556
188.75 4.848622
189.25 5.119846
189.75 5.218217
190.25 5.365348
190.75 5.545589
191.25 5.353796
191.75 4.992122
192.25 4.609229
192.75 4.377429
193.25 4.179378
193.75 4.042927
194.25 3.901127
194.75 3.851618
195.25 3.790729
195.75 3.726642
196.25 3.661753
196.75 3.610529
197.25 3.556065
197.75 3.522875
198.25 3.530843
198.75 3.53823
199.25 3.527768
199.75 3.512391
200.25 3.496673
200.75 3.467185
201.25 3.439729
201.75 3.411615
202.25 3.409328
202.75 3.388143
203.25 3.3846
203.75 3.37627
204.25 3.379228
204.75 3.384269
205.25 3.407215
205.75 3.420946
206.25 3.447655
206.75 3.474067
207.25 3.473292
207.75 3.450739
208.25 3.423368
208.75 3.388351
209.25 3.362697
209.75 3.341761
210.25 3.318128
210.75 3.284523
211.25 3.23664
211.75 3.215335
212.25 3.171759
212.75 3.147697
213.25 3.130573
213.75 3.115153
214.25 3.096306
214.75 3.078774
215.25 3.050853
215.75 3.030525
216.25 3.01151
216.75 3.032975
217.25 3.018266
217.75 3.008227
218.25 2.986503
218.75 2.954384
219.25 2.935293
219.75 2.900647
220.25 2.897537
220.75 2.897019
221.25 2.916385
221.75 2.91536
222.25 2.912489
222.75 2.901974
223.25 2.871246
223.75 2.854102
224.25 2.847849
224.75 2.858059
225.25 2.865661
225.75 2.86998
226.25 2.872117
226.75 2.8886
227.25 2.894076
227.75 2.925572
228.25 2.933555
228.75 2.951442
229.25 2.97155
229.75 2.991112
230.25 2.995497
230.75 3.014393
231.25 3.001034
231.75 3.033464
232.25 3.06793
232.75 3.098074
233.25 3.057604
233.75 3.022406
234.25 2.995045
234.75 2.962322
235.25 2.936699
235.75 2.931075
236.25 2.912214
236.75 2.912484
237.25 2.890601
237.75 2.884523
238.25 2.885783
238.75 2.888907
239.25 2.892294
239.75 2.894059
240.25 2.889217
240.75 2.911481
241.25 2.924853
241.75 2.972987
242.25 3.01547
242.75 2.994485
243.25 2.950465
243.75 2.940499
244.25 2.926657
244.75 2.896936
245.25 2.880634
245.75 2.857568
246.25 2.87693
246.75 2.899372
247.25 2.890019
247.75 2.877483
248.25 2.867369
248.75 2.867228
249.25 2.858932
249.75 2.855019
250.25 2.846216
250.75 2.829997
251.25 2.819316
251.75 2.808413
252.25 2.796723
252.75 2.79584
253.25 2.778339
253.75 2.771325
254.25 2.762948
254.75 2.745994
255.25 2.730261
255.75 2.714077
256.25 2.700198
256.75 2.68093
257.25 2.666155
257.75 2.659353
258.25 2.640134
258.75 2.630211
259.25 2.621417
259.75 2.61294
260.25 2.597314
260.75 2.599308
261.25 2.606821
261.75 2.600822
262.25 2.592226
262.75 2.583416
263.25 2.567882
263.75 2.522611
264.25 2.492138
264.75 2.46162
265.25 2.434904
265.75 2.418851
266.25 2.429124
266.75 2.438035
267.25 2.447367
267.75 2.448054
268.25 2.433669
268.75 2.434367
269.25 2.441517
269.75 2.454301
270.25 2.462526
270.75 2.474367
271.25 2.499595
271.75 2.522177
272.25 2.534836
272.75 2.547386
273.25 2.581581
273.75 2.593835
274.25 2.608382
274.75 2.644324
275.25 2.66093
275.75 2.672652
276.25 2.679541
276.75 2.705214
277.25 2.763556
277.75 2.863573
278.25 3.016469
278.75 3.207738
279.25 3.448537
279.75 3.676064
280.25 3.662959
280.75 3.480479
281.25 3.196598
281.75 2.99201
282.25 2.822833
282.75 2.706755
283.25 2.674712
283.75 2.638394
284.25 2.573277
284.75 2.539762
285.25 2.517558
285.75 2.464548
286.25 2.43392
286.75 2.399099
287.25 2.384193
287.75 2.349757
288.25 2.328579
288.75 2.298876
289.25 2.277992
289.75 2.246489
290.25 2.236614
290.75 2.209713
291.25 2.191494
291.75 2.213674
292.25 2.227238
292.75 2.236484
293.25 2.264542
293.75 2.252656
294.25 2.253345
294.75 2.256094
295.25 2.242248
295.75 2.247053
296.25 2.233305
296.75 2.223736
297.25 2.208091
297.75 2.202717
298.25 2.177077
298.75 2.157663
299.25 2.132319
299.75 2.09709
300.25 2.060081
300.75 2.031288
301.25 1.998696
301.75 1.971464
302.25 1.946376
302.75 1.941528
303.25 1.937878
303.75 1.939523
304.25 1.941343
304.75 1.93595
305.25 1.93891
305.75 1.929678
306.25 1.93589
306.75 1.935339
307.25 1.934781
307.75 1.930405
308.25 1.931745
308.75 1.9236
309.25 1.915497
309.75 1.907437
310.25 1.92192
310.75 1.930692
311.25 1.954302
311.75 1.964752
312.25 1.991785
312.75 1.996492
313.25 2.008517
313.75 1.976452
314.25 1.971995
314.75 1.960269
315.25 1.957688
315.75 1.960544
316.25 1.957959
316.75 1.976967
317.25 1.972534
317.75 1.987781
318.25 1.986886
318.75 2.00908
319.25 2.016958
319.75 1.998298
320.25 1.995583
320.75 1.970069
321.25 1.963941
321.75 1.949125
322.25 1.937867
322.75 1.937065
323.25 1.918987
323.75 1.911342
324.25 1.900302
324.75 1.892744
325.25 1.886929
325.75 1.891346
326.25 1.888944
326.75 1.879786
327.25 1.868991
327.75 1.868333
328.25 1.871021
328.75 1.853645
329.25 1.838029
329.75 1.82582
330.25 1.826915
330.75 1.801598
331.25 1.789584
331.75 1.774354
332.25 1.757574
332.75 1.755556
333.25 1.761667
333.75 1.756393
334.25 1.778605
334.75 1.774906
335.25 1.74874
335.75 1.729126
336.25 1.719199
336.75 1.720464
337.25 1.716953
337.75 1.715037
338.25 1.711548
338.75 1.706499
339.25 1.707745
339.75 1.712104
340.25 1.725784
340.75 1.728495
341.25 1.729632
341.75 1.747755
342.25 1.784253
342.75 1.811314
343.25 1.724853
343.75 1.696929
344.25 1.684388
344.75 1.67495
345.25 1.671616
345.75 1.669805
346.25 1.664986
346.75 1.673697
347.25 1.668881
347.75 1.655131
348.25 1.651869
348.75 1.64862
349.25 1.640944
349.75 1.646583
350.25 1.630116
350.75 1.618136
351.25 1.594516
351.75 1.587068
352.25 1.568021
352.75 1.550525
353.25 1.534567
353.75 1.518694
354.25 1.51441
354.75 1.505842
355.25 1.500176
355.75 1.497388
356.25 1.50172
356.75 1.50035
357.25 1.508881
357.75 1.513127
358.25 1.515938
358.75 1.50891
359.25 1.500517
359.75 1.497744
360.25 1.49498
360.75 1.489452
361.25 1.485332
361.75 1.479849
362.25 1.477143
362.75 1.482675
363.25 1.469021
363.75 1.463621
364.25 1.458246
364.75 1.446111
365.25 1.44486
365.75 1.440912
366.25 1.436981
366.75 1.434407
367.25 1.434519
367.75 1.425282
368.25 1.413429
368.75 1.408271
369.25 1.405783
369.75 1.400664
370.25 1.3982
370.75 1.387866
371.25 1.389369
371.75 1.402611
372.25 1.4275
372.75 1.635405
373.25 1.570139
373.75 1.399268
374.25 1.392955
374.75 1.376389
375.25 1.376568
375.75 1.406143
376.25 1.383285
376.75 1.364358
377.25 1.342989
377.75 1.330582
378.25 1.333374
378.75 1.324824
379.25 1.293726
379.75 1.276555
380.25 1.260718
380.75 1.273593
381.25 1.272738
381.75 1.268168
382.25 1.273499
382.75 1.265246
383.25 1.24843
383.75 1.24763
384.25 1.250497
384.75 1.271634
385.25 1.296304
385.75 1.300223
386.25 1.323473
386.75 1.421411
387.25 1.390062
387.75 1.294047
388.25 1.272756
388.75 1.274262
389.25 1.269799
389.75 1.248721
390.25 1.236043
390.75 1.219879
391.25 1.219121
391.75 1.206603
392.25 1.192971
392.75 1.180576
393.25 1.147348
393.75 1.138034
394.25 1.175092
394.75 1.187174
395.25 1.19226
395.75 1.198468
396.25 1.203492
396.75 1.211926
397.25 1.183716
397.75 1.16477
398.25 1.164124
398.75 1.152125
399.25 1.150373
399.75 1.126829
400.25 1.12886
400.75 1.119414
401.25 1.111918
401.75 1.119328
402.25 1.114428
402.75 1.114889
403.25 1.097142
403.75 1.09498
404.25 1.102875
404.75 1.095635
405.25 1.096121
405.75 1.097367
406.25 1.100136
406.75 1.125796
407.25 1.137179
407.75 1.13005
408.25 1.140279
408.75 1.160175
409.25 1.183205
409.75 1.183544
410.25 1.194601
410.75 1.16816
411.25 1.164254
411.75 1.160364
412.25 1.138435
412.75 1.127204
413.25 1.097
413.75 1.092242
414.25 1.079089
414.75 1.060751
415.25 1.050871
415.75 1.048345
416.25 1.056244
416.75 1.059946
417.25 1.048077
417.75 1.054878
418.25 1.055453
418.75 1.05808
419.25 1.040155
419.75 1.026411
420.25 1.012729
420.75 1.014707
421.25 1.016368
421.75 1.021772
422.25 1.027453
422.75 1.019974
423.25 1.054843
423.75 1.048334
424.25 1.056895
424.75 1.061411
425.25 1.04694
425.75 1.043487
426.25 1.04104
426.75 1.051485
427.25 1.030241
427.75 1.048547
428.25 1.065783
428.75 1.066244
429.25 1.068659
429.75 1.085718
430.25 1.081246
430.75 1.083602
431.25 1.108263
431.75 1.175409
432.25 1.195874
432.75 1.203714
433.25 1.254782
433.75 1.291222
434.25 1.348548
434.75 1.286244
435.25 1.270905
435.75 1.26609
436.25 1.283104
436.75 1.253675
437.25 1.175289
437.75 1.135874
438.25 1.103213
438.75 1.080073
439.25 1.082293
439.75 1.075167
440.25 1.06062
440.75 1.047995
441.25 1.058599
441.75 1.052505
442.25 1.039976
442.75 1.02658
443.25 1.018753
443.75 1.00546
444.25 1.015086
444.75 1.016455
445.25 1.020546
445.75 1.010991
446.25 1.01779
446.75 1.033599
447.25 1.056553
447.75 1.064097
448.25 1.047352
448.75 1.054878
449.25 1.063263
449.75 1.062685
450.25 1.080802
450.75 1.093507
451.25 1.105267
451.75 1.101052
452.25 1.110091
452.75 1.098835
453.25 1.071813
453.75 1.074712
454.25 1.098588
454.75 1.09181
455.25 1.094637
455.75 1.093106
456.25 1.101116
456.75 1.102167
457.25 1.099757
457.75 1.097357
458.25 1.089806
458.75 1.084859
459.25 1.082498
459.75 1.062213
460.25 1.050535
460.75 1.044855
461.25 1.050226
461.75 1.057264
462.25 1.066804
462.75 1.066185
463.25 1.071454
463.75 1.059914
464.25 1.050933
464.75 1.035303
465.25 1.020572
465.75 1.020878
466.25 1.01952
466.75 1.006566
467.25 1.016814
467.75 1.015466
468.25 1.023999
468.75 1.034137
469.25 0.9852145
469.75 0.9765754
470.25 0.9565443
470.75 0.9561421
471.25 0.9687425
471.75 0.9577694
472.25 0.9646445
472.75 0.9569524
473.25 0.9492905
473.75 0.9585454
474.25 0.9573281
474.75 0.9545118
475.25 0.9421161
475.75 0.9369472
476.25 0.9389597
476.75 0.9330208
477.25 0.9461226
477.75 0.9520508
478.25 0.9611082
478.75 0.9535895
479.25 0.9751751
479.75 0.996668
480.25 1.01181
480.75 1.022981
481.25 1.043456
481.75 1.076286
482.25 1.117514
482.75 1.149276
483.25 1.185541
483.75 1.241706
484.25 1.301485
484.75 1.374841
485.25 1.461687
485.75 1.54282
486.25 1.728956
486.75 1.560864
487.25 1.456555
487.75 1.400465
488.25 1.327188
488.75 1.263275
489.25 1.2147
489.75 1.193409
490.25 1.151176
490.75 1.143586
491.25 1.100874
491.75 1.104607
492.25 1.071826
492.75 1.085262
493.25 1.081579
493.75 1.049036
494.25 1.041743
494.75 1.051436
495.25 1.109654
495.75 1.302756
496.25 1.315523
496.75 1.021045
497.25 0.9671664
497.75 0.9644958
498.25 0.9589259
498.75 0.9715154
499.25 1.049945
499.75 1.143959
500.25 1.36669
500.75 2.17874
501.25 1.537952
501.75 1.053847
502.25 1.014545
502.75 0.9775393
503.25 0.9727472
503.75 0.9509033
504.25 0.9149474
504.75 0.9223444
505.25 0.8978962
505.75 0.9088224
506.25 0.9077321
506.75 0.8834513
507.25 0.8641744
507.75 0.8687739
508.25 0.8572843
508.75 0.8486265
509.25 0.8692314
509.75 0.855719
510.25 0.8547359
510.75 0.8585985
511.25 0.858991
511.75 0.8676505
512.25 0.8742114
512.75 0.8608374
513.25 0.8776598
513.75 0.8882608
514.25 0.879027
514.75 0.8882187
515.25 0.9075702
515.75 0.9282021
516.25 0.9433352
516.75 0.9070404
517.25 0.8944942
517.75 0.9203716
518.25 0.9112046
518.75 0.8886582
519.25 0.9137229
519.75 0.9286687
520.25 0.9295519
520.75 0.9038081
521.25 0.8974248
521.75 0.9063137
522.25 0.9045793
522.75 0.8909615
523.25 0.9004657
523.75 0.914538
524.25 0.9259277
524.75 0.9215426
525.25 0.9106303
525.75 0.9121636
526.25 0.9169485
526.75 0.887238
527.25 0.9017871
527.75 0.9227592
528.25 0.9268343
528.75 0.9425123
529.25 0.9452425
529.75 0.9331695
530.25 0.9095851
530.75 0.9315783
531.25 0.9451732
531.75 0.938929
532.25 0.9263347
532.75 0.9004326
533.25 0.8981105
533.75 0.8983291
534.25 0.8795754
534.75 0.8791937
535.25 0.8813315
535.75 0.8878617
536.25 0.8918555
536.75 0.8858094
537.25 0.8610258
537.75 0.8637939
538.25 0.8509762
538.75 0.8506415
539.25 0.8428579
539.75 0.8357215
540.25 0.8347938
540.75 0.8196716
541.25 0.8286315
541.75 0.8498559
542.25 0.8525861
542.75 0.8479523
543.25 0.8268224
543.75 0.8307964
544.25 0.8414564
544.75 0.8247081
545.25 0.8171256
545.75 0.8150227
546.25 0.8219996
546.75 0.8162701
547.25 0.8093559
547.75 0.8006602
548.25 0.8004014
548.75 0.8091325
549.25 0.8040707
549.75 0.807386
550.25 0.8160528
550.75 0.8217118
551.25 0.8107189
551.75 0.8145863
552.25 0.8284978
552.75 0.8199112
553.25 0.8337607
553.75 0.8328445
554.25 0.8378051
554.75 0.8351225
555.25 0.8347902
555.75 0.8268609
556.25 0.8137091
556.75 0.8093366
557.25 0.8096286
557.75 0.8052772
558.25 0.8142594
558.75 0.8006626
559.25 0.794038
559.75 0.7845561
560.25 0.7952312
560.75 0.7920916
561.25 0.8055782
561.75 0.7898461
562.25 0.7964346
562.75 0.8035686
563.25 0.8129518
563.75 0.8007204
564.25 0.7834297
564.75 0.7888335
565.25 0.8055143
565.75 0.7967609
566.25 0.7863483
566.75 0.7855235
567.25 0.8082578
567.75 0.8040352
568.25 0.7981498
568.75 0.8051158
569.25 0.7881074
569.75 0.8022923
570.25 0.8075462
570.75 0.7911729
571.25 0.7881291
571.75 0.8270548
572.25 0.8305706
572.75 0.82582
573.25 0.8073541
573.75 0.8119789
574.25 0.7952408
574.75 0.8135267
575.25 0.8268387
575.75 0.8134256
576.25 0.812558
576.75 0.7997554
577.25 0.8113696
577.75 0.8050996
578.25 0.7923734
578.75 0.793699
579.25 0.8052386
579.75 0.8140529
580.25 0.8330203
580.75 0.827841
581.25 0.8285538
581.75 0.8249971
582.25 0.8331635
582.75 0.8343917
583.25 0.8478174
583.75 0.8527209
584.25 0.8512622
584.75 0.8529744
585.25 0.8736485
585.75 0.8590066
586.25 0.8654188
586.75 0.8864873
587.25 0.9257989
587.75 0.9388532
588.25 0.9043993
588.75 0.8877642
589.25 0.8316789
589.75 0.840129
590.25 0.8407785
590.75 0.8688341
591.25 0.8518763
591.75 0.834975
592.25 0.8345945
592.75 0.8357559
593.25 0.8369117
593.75 0.8140011
594.25 0.8213199
594.75 0.8250422
595.25 0.8149974
595.75 0.8136296
596.25 0.8183579
596.75 0.8261096
597.25 0.820173
597.75 0.8223379
598.25 0.8018011
598.75 0.8075107
599.25 0.8142052
599.75 0.8203747
600.25 0.8054836
600.75 0.7926413
601.25 0.7873296
601.75 0.7795418
602.25 0.7901904
602.75 0.7863965
603.25 0.7960042
603.75 0.8085498
604.25 0.8027637
604.75 0.8103197
605.25 0.8188347
605.75 0.8051868
606.25 0.8102433
606.75 0.8093986
607.25 0.815408
607.75 0.8331238
608.25 0.84395
608.75 0.8508438
609.25 0.8154116
609.75 0.7990263
610.25 0.7977175
610.75 0.7968958
611.25 0.8018727
611.75 0.802491
612.25 0.7968476
612.75 0.7955478
613.25 0.7928116
613.75 0.7924787
614.25 0.7959723
614.75 0.7980209
615.25 0.8014922
615.75 0.7868624
616.25 0.7803587
616.75 0.7762469
617.25 0.7787796
617.75 0.7808301
618.25 0.7956219
618.75 0.7834935
619.25 0.7803467
619.75 0.7743891
620.25 0.7806471
620.75 0.7770482
621.25 0.7860858
621.75 0.7703489
622.25 0.7625852
622.75 0.7818379
623.25 0.7852303
623.75 0.7830444
624.25 0.7924426
624.75 0.7897877
625.25 0.7760597
625.75 0.7679065
626.25 0.7763444
626.75 0.7842954
627.25 0.7848806
627.75 0.7868365
628.25 0.7906148
628.75 0.7939236
629.25 0.7972203
629.75 0.8291763
630.25 0.8928362
630.75 0.8242813
631.25 0.8098411
631.75 0.8008715
632.25 0.7914787
632.75 0.8051044
633.25 0.8164357
633.75 0.8066094
634.25 0.8152088
634.75 0.8027264
635.25 0.8372429
635.75 0.8292281
636.25 0.8332755
636.75 0.8568953
637.25 0.8639956
637.75 0.847998
638.25 0.839138
638.75 0.8303045
639.25 0.8338643
639.75 0.8184501
640.25 0.82818
640.75 0.8378774
641.25 0.8361327
641.75 0.8378979
642.25 0.840094
642.75 0.8636892
643.25 0.8492611
643.75 0.8657987
644.25 0.8818487
644.75 0.8783106
645.25 0.8747827
645.75 0.891174
646.25 0.8971419
646.75 0.9246647
647.25 0.9391765
647.75 0.9566538
648.25 0.9745057
648.75 0.9738621
649.25 1.003618
649.75 1.005067
650.25 1.041938
650.75 1.113217
