# Wavelength(nm)  Flambda(ergs/cm^s/s/nm)
100.00 8.231715e-07
101.00 4.755436e-06
102.00 1.625727e-05
103.00 4.257882e-05
104.00 9.450885e-05
105.00 0.0001870391
106.00 0.0003399004
107.00 0.0005779012
108.00 0.0009310013
109.00 0.001434068
110.00 0.002126251
111.00 0.003049958
112.00 0.004249409
113.00 0.005768779
114.00 0.007649971
115.00 0.009930056
116.00 0.01263852
117.00 0.01579436
118.00 0.01940323
119.00 0.0234548
120.00 0.02792045
121.00 0.03275138
122.00 0.03787778
123.00 0.04320834
124.00 0.04863149
125.00 0.05401685
126.00 0.05923135
127.00 0.06418821
128.00 0.06882605
129.00 0.07310004
130.00 0.0769824
131.00 0.0804625
132.00 0.08354586
133.00 0.08625328
134.00 0.08861894
135.00 0.09068894
136.00 0.09251924
137.00 0.09417413
138.00 0.0957229
139.00 0.09720398
140.00 0.0986212
141.00 0.09997679
142.00 0.1012733
143.00 0.1025137
144.00 0.1037013
145.00 0.1048403
146.00 0.1059355
147.00 0.1069929
148.00 0.108019
149.00 0.1090216
150.00 0.1100091
151.00 0.1109898
152.00 0.1119684
153.00 0.1129486
154.00 0.1139335
155.00 0.1149265
156.00 0.1159305
157.00 0.1169484
158.00 0.1179832
159.00 0.1190372
160.00 0.1201134
161.00 0.1212139
162.00 0.1223413
163.00 0.123498
164.00 0.1246863
165.00 0.1259085
166.00 0.1271669
167.00 0.128464
168.00 0.1298019
169.00 0.1311831
170.00 0.1326101
171.00 0.1340853
172.00 0.1356113
173.00 0.1371909
174.00 0.1388269
175.00 0.1405222
176.00 0.1422791
177.00 0.1440976
178.00 0.1459768
179.00 0.1479157
180.00 0.1499134
181.00 0.1519686
182.00 0.1540801
183.00 0.1562467
184.00 0.1584668
185.00 0.1607389
186.00 0.1630613
187.00 0.1654322
188.00 0.1678496
189.00 0.1703115
190.00 0.1728156
191.00 0.1753595
192.00 0.1779407
193.00 0.1805563
194.00 0.1832036
195.00 0.1858794
196.00 0.1885805
197.00 0.1913034
198.00 0.1940444
199.00 0.1967996
200.00 0.199565
201.00 0.2023367
202.00 0.2051141
203.00 0.2078968
204.00 0.2106845
205.00 0.2134771
206.00 0.2162741
207.00 0.2190753
208.00 0.2218802
209.00 0.2246885
210.00 0.2274998
211.00 0.2303137
212.00 0.2331299
213.00 0.2359477
214.00 0.2387669
215.00 0.241587
216.00 0.2444074
217.00 0.2472278
218.00 0.2500477
219.00 0.2528667
220.00 0.2556842
221.00 0.2584999
222.00 0.2613132
223.00 0.2641238
224.00 0.2669312
225.00 0.269735
226.00 0.2725345
227.00 0.2753282
228.00 0.2781139
229.00 0.2808897
230.00 0.2836534
231.00 0.2864032
232.00 0.2891367
233.00 0.2918522
234.00 0.2945471
235.00 0.2972192
236.00 0.2998666
237.00 0.3024872
238.00 0.3050784
239.00 0.3076378
240.00 0.3101634
241.00 0.3126531
242.00 0.3151039
243.00 0.3175141
244.00 0.3198809
245.00 0.322202
246.00 0.324475
247.00 0.3266973
248.00 0.3288663
249.00 0.3309795
250.00 0.3330344
251.00 0.3122151
252.00 0.3095537
253.00 0.265238
254.00 0.2154748
255.00 0.2445952
256.00 0.3000592
257.00 0.2751952
258.00 0.2544105
259.00 0.2586047
260.00 0.2591981
261.00 0.2962191
262.00 0.2717535
263.00 0.2509409
264.00 0.2739101
265.00 0.3599402
266.00 0.347211
267.00 0.343334
268.00 0.3935475
269.00 0.3960638
270.00 0.4197319
271.00 0.4542999
272.00 0.474764
273.00 0.496364
274.00 0.5270018
275.00 0.5257425
276.00 0.5108454
277.00 0.522024
278.00 0.6124528
279.00 0.6706284
280.00 0.6830819
281.00 0.7962523
282.00 0.9210531
283.00 0.9969551
284.00 1.05622
285.00 1.045382
286.00 1.102477
287.00 1.140359
288.00 1.252733
289.00 1.259323
290.00 1.351647
291.00 1.428378
292.00 1.432974
293.00 1.450386
294.00 1.46019
295.00 1.442571
296.00 1.410001
297.00 1.515223
298.00 1.574778
299.00 1.55077
300.00 1.557111
301.00 1.558466
302.00 1.654478
303.00 1.782256
304.00 1.834159
305.00 1.713914
306.00 1.665736
307.00 1.793932
308.00 1.848735
309.00 1.658785
310.00 1.594001
311.00 1.570523
312.00 1.57517
313.00 1.751437
314.00 1.736521
315.00 1.517659
316.00 1.730971
317.00 1.853788
318.00 1.715211
319.00 1.622812
320.00 1.695662
321.00 1.466391
322.00 1.495481
323.00 1.312845
324.00 1.307783
325.00 1.232146
326.00 1.233916
327.00 1.243961
328.00 1.249856
329.00 1.29523
330.00 1.343292
331.00 1.386592
332.00 1.508715
333.00 1.619086
334.00 1.67619
335.00 1.72539
336.00 1.779043
337.00 1.775013
338.00 1.749002
339.00 1.709524
340.00 1.767023
341.00 1.823006
342.00 1.939001
343.00 2.034133
344.00 2.155098
345.00 2.211784
346.00 2.309768
347.00 2.414953
348.00 2.413175
349.00 2.435175
350.00 2.500542
351.00 2.560875
352.00 2.557303
353.00 2.527411
354.00 2.499327
355.00 2.464377
356.00 2.435209
357.00 2.349987
358.00 2.274139
359.00 2.187464
360.00 2.045547
361.00 1.874356
362.00 1.776188
363.00 1.667574
364.00 1.555472
365.00 1.441528
366.00 1.293457
367.00 1.19672
368.00 1.097531
369.00 1.01129
370.00 0.9524443
371.00 0.9510441
372.00 0.9707619
373.00 1.007474
374.00 1.077745
375.00 1.159686
376.00 1.20416
377.00 1.242612
378.00 1.276807
379.00 1.290202
380.00 1.322397
381.00 1.390545
382.00 1.490244
383.00 1.596047
384.00 1.721135
385.00 1.854711
386.00 1.970765
387.00 2.084415
388.00 2.197717
389.00 2.263376
390.00 2.349791
391.00 2.391536
392.00 2.446948
393.00 2.453326
394.00 2.378267
395.00 2.350654
396.00 2.25896
397.00 2.130731
398.00 2.00171
399.00 1.94897
400.00 1.912194
401.00 1.924547
402.00 1.982861
403.00 2.053657
404.00 2.122431
405.00 2.204068
406.00 2.25671
407.00 2.322465
408.00 2.331956
409.00 2.307668
410.00 2.288489
411.00 2.248283
412.00 2.196607
413.00 2.126183
414.00 2.07641
415.00 2.037437
416.00 1.988881
417.00 1.948675
418.00 1.910658
419.00 1.854806
420.00 1.789027
421.00 1.717396
422.00 1.655801
423.00 1.601483
424.00 1.532134
425.00 1.483701
426.00 1.431874
427.00 1.373816
428.00 1.298378
429.00 1.248489
430.00 1.218674
431.00 1.22339
432.00 1.236037
433.00 1.280895
434.00 1.332831
435.00 1.386364
436.00 1.424622
437.00 1.449871
438.00 1.451002
439.00 1.430286
440.00 1.392669
441.00 1.37504
442.00 1.364891
443.00 1.37605
444.00 1.412944
445.00 1.4626
446.00 1.509787
447.00 1.548072
448.00 1.579282
449.00 1.579763
450.00 1.596113
451.00 1.601762
452.00 1.590443
453.00 1.572867
454.00 1.541352
455.00 1.509722
456.00 1.500428
457.00 1.474021
458.00 1.460387
459.00 1.455604
460.00 1.444398
461.00 1.428795
462.00 1.386083
463.00 1.335133
464.00 1.289504
465.00 1.238672
466.00 1.2008
467.00 1.158117
468.00 1.145676
469.00 1.154938
470.00 1.152605
471.00 1.13433
472.00 1.117403
473.00 1.099872
474.00 1.07389
475.00 1.053087
476.00 1.051846
477.00 1.065325
478.00 1.069153
479.00 1.067589
480.00 1.046513
481.00 1.011119
482.00 0.9669235
483.00 0.914855
484.00 0.862866
485.00 0.82377
486.00 0.7946238
487.00 0.789733
488.00 0.8002215
489.00 0.8136658
490.00 0.8264452
491.00 0.8447027
492.00 0.8662006
493.00 0.8832276
494.00 0.8927325
495.00 0.9042724
496.00 0.9105791
497.00 0.9140513
498.00 0.9161008
499.00 0.9188588
500.00 0.9319843
501.00 0.9400972
502.00 0.9525562
503.00 0.9627285
504.00 0.9780434
505.00 0.9984702
506.00 1.023744
507.00 1.048508
508.00 1.068457
509.00 1.083464
510.00 1.09572
511.00 1.095017
512.00 1.084402
513.00 1.071992
514.00 1.057851
515.00 1.051478
516.00 1.053722
517.00 1.054009
518.00 1.055025
519.00 1.058155
520.00 1.048485
521.00 1.022776
522.00 0.9843948
523.00 0.9371349
524.00 0.8862239
525.00 0.8348167
526.00 0.7999728
527.00 0.7703691
528.00 0.7514626
529.00 0.742066
530.00 0.7432852
531.00 0.7482921
532.00 0.7560139
533.00 0.7681701
534.00 0.7755493
535.00 0.7793572
536.00 0.7857361
537.00 0.784205
538.00 0.7756837
539.00 0.7622795
540.00 0.7476215
541.00 0.7263945
542.00 0.6983908
543.00 0.6769757
544.00 0.6526704
545.00 0.6411892
546.00 0.6410088
547.00 0.6505269
548.00 0.6703121
549.00 0.697947
550.00 0.721778
551.00 0.7445925
552.00 0.7665194
553.00 0.7797319
554.00 0.7844647
555.00 0.7877595
556.00 0.7879811
557.00 0.7877291
558.00 0.7908014
559.00 0.7951461
560.00 0.799456
561.00 0.8027252
562.00 0.8032025
563.00 0.7985075
564.00 0.7986455
565.00 0.7918563
566.00 0.7866936
567.00 0.7817945
568.00 0.7771209
569.00 0.7642277
570.00 0.7476826
571.00 0.7293135
572.00 0.7051193
573.00 0.6847671
574.00 0.667157
575.00 0.6520917
576.00 0.6381861
577.00 0.6338877
578.00 0.6323884
579.00 0.6317156
580.00 0.6406264
581.00 0.6486274
582.00 0.6586137
583.00 0.6651665
584.00 0.6730824
585.00 0.6770755
586.00 0.6835603
587.00 0.6918493
588.00 0.691143
589.00 0.6833397
590.00 0.6467022
591.00 0.659283
592.00 0.6742416
593.00 0.6749413
594.00 0.6659605
595.00 0.6545112
596.00 0.6490591
597.00 0.6358593
598.00 0.6207846
599.00 0.6081561
600.00 0.5864031
601.00 0.5644172
602.00 0.5415906
603.00 0.5206098
604.00 0.495802
605.00 0.468473
606.00 0.4398342
607.00 0.4087644
608.00 0.384048
609.00 0.3576971
610.00 0.3379426
611.00 0.320466
612.00 0.3101895
613.00 0.3093757
614.00 0.3114092
615.00 0.3233361
616.00 0.342072
617.00 0.3647098
618.00 0.3930499
619.00 0.4238824
620.00 0.4561146
621.00 0.4864375
622.00 0.513077
623.00 0.5377229
624.00 0.5596942
625.00 0.5834902
626.00 0.6019701
627.00 0.6181394
628.00 0.6142472
629.00 0.6303395
630.00 0.6370541
631.00 0.645949
632.00 0.6497081
633.00 0.6552677
634.00 0.6588532
635.00 0.6629033
636.00 0.6609002
637.00 0.6642525
638.00 0.6612252
639.00 0.6603253
640.00 0.6565393
641.00 0.6499072
642.00 0.6457123
643.00 0.6380045
644.00 0.63237
645.00 0.6257597
646.00 0.6211097
647.00 0.6141825
648.00 0.6073157
649.00 0.6052141
650.00 0.602283
651.00 0.6007799
652.00 0.5980993
653.00 0.5919366
654.00 0.5833209
655.00 0.5809206
656.00 0.5773211
657.00 0.5698465
658.00 0.5659911
659.00 0.5607988
660.00 0.5530677
661.00 0.5441048
662.00 0.5392172
663.00 0.5338187
664.00 0.5285809
665.00 0.5257724
666.00 0.5227887
667.00 0.5176581
668.00 0.5109191
669.00 0.5044366
670.00 0.4960667
671.00 0.4879041
672.00 0.4810828
673.00 0.4755842
674.00 0.4691779
675.00 0.4637453
676.00 0.4582675
677.00 0.4528698
678.00 0.4486359
679.00 0.4468853
680.00 0.4460172
681.00 0.4455471
682.00 0.4450457
683.00 0.4422831
684.00 0.4370809
685.00 0.4250366
686.00 0.4226056
687.00 0.4146194
688.00 0.4115177
689.00 0.4080982
690.00 0.4137908
691.00 0.4076955
692.00 0.4095703
693.00 0.4060824
694.00 0.4025814
695.00 0.4013754
696.00 0.4015825
697.00 0.3976585
698.00 0.3955349
699.00 0.3947905
700.00 0.3901101
701.00 0.3848149
702.00 0.3836407
703.00 0.3836113
704.00 0.3838579
705.00 0.3848797
706.00 0.3867824
707.00 0.387738
708.00 0.3863356
709.00 0.385299
710.00 0.3850034
711.00 0.3851797
712.00 0.3852675
713.00 0.3854499
714.00 0.3852864
715.00 0.3782657
716.00 0.3729917
717.00 0.3634566
718.00 0.3590658
719.00 0.3558443
720.00 0.3554913
721.00 0.3502644
722.00 0.3478872
723.00 0.3451311
724.00 0.3395507
725.00 0.3353678
726.00 0.328803
727.00 0.3269984
728.00 0.322567
729.00 0.3167123
730.00 0.3110288
731.00 0.3116086
732.00 0.3068539
733.00 0.2990643
734.00 0.2952583
735.00 0.2919422
736.00 0.2894982
737.00 0.2884384
738.00 0.2883918
739.00 0.2865916
740.00 0.2852119
741.00 0.2794439
742.00 0.2708251
743.00 0.262053
744.00 0.2522043
745.00 0.2429125
746.00 0.2363076
747.00 0.2328872
748.00 0.2312842
749.00 0.2327791
750.00 0.2341564
751.00 0.2353316
752.00 0.2351123
753.00 0.2344539
754.00 0.2306892
755.00 0.2271494
756.00 0.2243711
757.00 0.2247548
758.00 0.2247062
759.00 0.2272934
760.00 0.2305348
761.00 0.2341827
762.00 0.2367737
763.00 0.24129
764.00 0.2444166
765.00 0.246587
766.00 0.2475986
767.00 0.2476573
768.00 0.2440311
769.00 0.2413058
770.00 0.2392102
771.00 0.2371675
772.00 0.2344274
773.00 0.2345248
774.00 0.2336673
775.00 0.2327202
776.00 0.2308212
777.00 0.2299684
778.00 0.2259855
779.00 0.2217892
780.00 0.2155886
781.00 0.2097929
782.00 0.2032619
783.00 0.1977104
784.00 0.1923096
785.00 0.1874153
786.00 0.1826202
787.00 0.1778905
788.00 0.1733293
789.00 0.1689587
790.00 0.165257
791.00 0.1622433
792.00 0.1606579
793.00 0.1604678
794.00 0.1599132
795.00 0.1589789
796.00 0.1581257
797.00 0.1573843
798.00 0.1556289
799.00 0.1549872
800.00 0.155888
801.00 0.157609
802.00 0.1596301
803.00 0.1631765
804.00 0.1676661
805.00 0.1707779
806.00 0.173081
807.00 0.173797
808.00 0.1743964
809.00 0.173358
810.00 0.1740284
811.00 0.1751534
812.00 0.1745582
813.00 0.1722841
814.00 0.1711007
815.00 0.1684726
816.00 0.1641041
817.00 0.1647958
818.00 0.1642285
819.00 0.1667808
820.00 0.1665113
821.00 0.1620494
822.00 0.1656675
823.00 0.1682997
824.00 0.1651827
825.00 0.1686467
826.00 0.1740209
827.00 0.1683966
828.00 0.1666673
829.00 0.1667592
830.00 0.1616591
831.00 0.1638593
832.00 0.1630885
833.00 0.1640491
834.00 0.1642196
835.00 0.1665141
836.00 0.1658725
837.00 0.1684446
838.00 0.1684064
839.00 0.1706598
840.00 0.1727319
841.00 0.1747036
842.00 0.1762597
843.00 0.1785669
844.00 0.1806719
845.00 0.1820708
846.00 0.1826966
847.00 0.1820538
848.00 0.1816903
849.00 0.1795749
850.00 0.1789411
851.00 0.1798901
852.00 0.1814299
853.00 0.1818237
854.00 0.1842291
855.00 0.183391
856.00 0.1808096
857.00 0.1806633
858.00 0.1805116
859.00 0.1785436
860.00 0.1778968
861.00 0.1779599
862.00 0.1791931
863.00 0.1776427
864.00 0.1812651
865.00 0.1814019
866.00 0.179789
867.00 0.1762658
868.00 0.1791085
869.00 0.1755666
870.00 0.1767692
871.00 0.1767002
872.00 0.1722324
873.00 0.1760709
874.00 0.1751341
875.00 0.1728202
876.00 0.1721278
877.00 0.1715957
878.00 0.1710872
879.00 0.1692099
880.00 0.1638777
881.00 0.1632107
882.00 0.1587752
883.00 0.1523764
884.00 0.148626
885.00 0.1462424
886.00 0.1422224
887.00 0.1401425
888.00 0.1326831
889.00 0.1346886
890.00 0.1323927
891.00 0.1340096
892.00 0.131569
893.00 0.1321533
894.00 0.1346043
895.00 0.1316889
896.00 0.1323566
897.00 0.1266745
898.00 0.1335948
899.00 0.1221588
900.00 0.1258791
901.00 0.1244739
902.00 0.1216738
903.00 0.1248215
904.00 0.1277616
905.00 0.1249545
906.00 0.1253594
907.00 0.1226033
908.00 0.1238103
909.00 0.1244536
910.00 0.1235987
911.00 0.1276617
912.00 0.1262273
913.00 0.1246436
914.00 0.1290294
915.00 0.1270878
916.00 0.1252522
917.00 0.1298258
918.00 0.1282426
919.00 0.1361346
920.00 0.1312324
921.00 0.1352359
922.00 0.1347147
923.00 0.1336968
924.00 0.1309761
925.00 0.1308984
926.00 0.1343768
927.00 0.1316613
928.00 0.1280691
929.00 0.1273007
930.00 0.1214657
931.00 0.1107473
932.00 0.09860825
933.00 0.09776295
934.00 0.08552776
935.00 0.09182449
936.00 0.08736865
937.00 0.09403957
938.00 0.0890674
939.00 0.1056945
940.00 0.110087
941.00 0.1073555
942.00 0.1003346
943.00 0.0904401
944.00 0.08855261
945.00 0.09283656
946.00 0.08922495
947.00 0.09214497
948.00 0.09494845
949.00 0.09550643
950.00 0.08162564
951.00 0.09594848
952.00 0.08477859
953.00 0.08723375
954.00 0.09151896
955.00 0.0884652
956.00 0.08900404
957.00 0.08288331
958.00 0.09212777
959.00 0.08344703
960.00 0.08763482
961.00 0.08642515
962.00 0.088706
963.00 0.08710286
964.00 0.08657543
965.00 0.08609663
966.00 0.09076176
967.00 0.08128023
968.00 0.08470854
969.00 0.08351717
970.00 0.0828233
971.00 0.08537871
972.00 0.0809162
973.00 0.0853142
974.00 0.08102794
975.00 0.0804374
976.00 0.07798784
977.00 0.08327354
978.00 0.0801715
979.00 0.07904626
980.00 0.08049223
981.00 0.07579696
982.00 0.07797245
983.00 0.0794592
984.00 0.08040512
985.00 0.07930936
986.00 0.07842401
987.00 0.07695802
988.00 0.08088186
989.00 0.07654639
990.00 0.07786389
991.00 0.0712301
992.00 0.07804494
993.00 0.07076571
994.00 0.07079031
995.00 0.0780981
996.00 0.073889
997.00 0.07410097
998.00 0.0742105
999.00 0.07461206
1000.00 0.07493415
1001.00 0.07461236
1002.00 0.07429084
1003.00 0.07396954
1004.00 0.07364832
1005.00 0.07332729
1006.00 0.0730064
1007.00 0.0726857
1008.00 0.072365
1009.00 0.07204452
1010.00 0.07172418
1011.00 0.07140392
1012.00 0.07108377
1013.00 0.07076376
1014.00 0.07044375
1015.00 0.07012395
1016.00 0.06980416
1017.00 0.06948445
1018.00 0.06916485
1019.00 0.0688453
1020.00 0.06852581
1021.00 0.0682064
1022.00 0.06788702
1023.00 0.06756764
1024.00 0.06724834
1025.00 0.06692901
1026.00 0.06660977
1027.00 0.0662906
1028.00 0.06597136
1029.00 0.06565214
1030.00 0.0653329
1031.00 0.0650136
1032.00 0.06469446
1033.00 0.06437519
1034.00 0.06405592
1035.00 0.06373668
1036.00 0.06341735
1037.00 0.06309794
1038.00 0.06277859
1039.00 0.06245912
1040.00 0.06213963
1041.00 0.06182006
1042.00 0.06150043
1043.00 0.06118083
1044.00 0.06086103
1045.00 0.06054121
1046.00 0.06022128
1047.00 0.05990135
1048.00 0.05958126
1049.00 0.05926108
1050.00 0.05894082
1051.00 0.05862053
1052.00 0.05830011
1053.00 0.05797955
1054.00 0.05765893
1055.00 0.05733826
1056.00 0.0570174
1057.00 0.05669643
1058.00 0.05637537
1059.00 0.05605418
1060.00 0.05573296
1061.00 0.05541149
1062.00 0.05508992
1063.00 0.05476823
1064.00 0.05444644
1065.00 0.05412445
1066.00 0.05380238
1067.00 0.05348017
1068.00 0.0531578
1069.00 0.05283529
1070.00 0.05251259
1071.00 0.05218981
1072.00 0.05186681
1073.00 0.05154375
1074.00 0.05122047
1075.00 0.05089695
1076.00 0.0505734
1077.00 0.05024957
1078.00 0.04992564
1079.00 0.04960151
1080.00 0.04927719
1081.00 0.04895274
1082.00 0.04862806
1083.00 0.04830322
1084.00 0.04797816
1085.00 0.04765291
1086.00 0.04732752
1087.00 0.04700191
1088.00 0.04667614
1089.00 0.04635012
1090.00 0.04602385
1091.00 0.04569745
1092.00 0.04537091
1093.00 0.04504407
1094.00 0.04471701
1095.00 0.04438967
1096.00 0.04406228
1097.00 0.04373453
1098.00 0.04340667
1099.00 0.04307849
1100.00 0.04275014
1101.00 0.04242154
1102.00 0.04209269
1103.00 0.04176366
1104.00 0.04143435
1105.00 0.04110487
1106.00 0.04077507
1107.00 0.04044507
1108.00 0.04011483
1109.00 0.03978431
1110.00 0.03945357
1111.00 0.03912261
1112.00 0.03879136
1113.00 0.03845985
1114.00 0.03812813
1115.00 0.0377961
1116.00 0.03746383
1117.00 0.03713133
1118.00 0.03679851
1119.00 0.03646544
1120.00 0.03613213
1121.00 0.03579851
1122.00 0.0354647
1123.00 0.03513054
1124.00 0.03479612
1125.00 0.03446144
1126.00 0.03412647
1127.00 0.03379124
1128.00 0.0334557
1129.00 0.03311992
1130.00 0.03278386
1131.00 0.03279864
1132.00 0.03281348
1133.00 0.0328284
1134.00 0.0328433
1135.00 0.03285822
1136.00 0.03287322
1137.00 0.0328882
1138.00 0.03290323
1139.00 0.03291826
1140.00 0.03293337
1141.00 0.03294846
1142.00 0.03296354
1143.00 0.03297877
1144.00 0.03299391
1145.00 0.03300913
1146.00 0.0330243
1147.00 0.03303955
1148.00 0.03305486
1149.00 0.03307008
1150.00 0.03308541
1151.00 0.03310072
1152.00 0.03311605
1153.00 0.03313141
1154.00 0.03314677
1155.00 0.03316218
1156.00 0.03317757
1157.00 0.03319299
1158.00 0.0332084
1159.00 0.0332239
1160.00 0.03323931
1161.00 0.03325484
1162.00 0.03327031
1163.00 0.03328583
1164.00 0.03330133
1165.00 0.03331677
1166.00 0.03333235
1167.00 0.03334785
1168.00 0.0333634
1169.00 0.03337898
1170.00 0.03339453
1171.00 0.03341011
1172.00 0.03342561
1173.00 0.03344127
1174.00 0.03345683
1175.00 0.03347241
1176.00 0.03348796
1177.00 0.03350356
1178.00 0.03351912
1179.00 0.03353475
1180.00 0.03355036
1181.00 0.03356591
1182.00 0.03358149
1183.00 0.03359707
1184.00 0.0336127
1185.00 0.0336282
1186.00 0.03364378
1187.00 0.03365939
1188.00 0.03367491
1189.00 0.03369049
1190.00 0.03370602
1191.00 0.03372157
1192.00 0.03373709
1193.00 0.03375259
1194.00 0.03376812
1195.00 0.03378356
1196.00 0.03379911
1197.00 0.03381458
1198.00 0.03383005
1199.00 0.03384547
1200.00 0.03386094
1201.00 0.03387635
1202.00 0.03389179
1203.00 0.03390715
1204.00 0.03392251
1205.00 0.03393793
1206.00 0.03395321
1207.00 0.03396851
1208.00 0.03398382
1209.00 0.03399912
1210.00 0.03401434
1211.00 0.0340296
1212.00 0.03404479
1213.00 0.03405993
1214.00 0.03407513
1215.00 0.03409032
1216.00 0.03410535
1217.00 0.03412049
1218.00 0.0341355
1219.00 0.03415056
1220.00 0.03416556
1221.00 0.03418051
1222.00 0.03419543
1223.00 0.03421035
1224.00 0.03422522
1225.00 0.03424008
1226.00 0.0342549
1227.00 0.03426965
1228.00 0.03428444
1229.00 0.03429917
1230.00 0.03431376
1231.00 0.03432843
1232.00 0.034343
1233.00 0.03435756
1234.00 0.03437207
1235.00 0.03438655
1236.00 0.03440093
1237.00 0.03441535
1238.00 0.0344297
1239.00 0.03444402
1240.00 0.03445828
1241.00 0.03447249
1242.00 0.03448667
1243.00 0.03450077
1244.00 0.03451487
1245.00 0.03452888
1246.00 0.03454284
1247.00 0.03455683
1248.00 0.03457071
1249.00 0.03458451
1250.00 0.03459828
1251.00 0.03461995
1252.00 0.03464167
1253.00 0.03466326
1254.00 0.03468482
1255.00 0.03470618
